Temp.(C)   eta (H2) eta (NG)
     0.0 100.5667 100.3611
     1.0 100.4898 100.2797
     2.0 100.4119 100.1967
     3.0 100.3328 100.1121
     4.0 100.2526 100.0259
     5.0 100.1712  99.9378
     6.0 100.0884  99.8479
     7.0 100.0043  99.7560
     8.0  99.9187  99.6621
     9.0  99.8316  99.5659
    10.0  99.7429  99.4675
    11.0  99.6526  99.3666
    12.0  99.5604  99.2631
    13.0  99.4663  99.1569
    14.0  99.3703  99.0479
    15.0  99.2722  98.9359
    16.0  99.1719  98.8208
    17.0  99.0694  98.7024
    18.0  98.9644  98.5804
    19.0  98.8568  98.4549
    20.0  98.7466  98.3254
    21.0  98.6336  98.1920
    22.0  98.5177  98.0543
    23.0  98.3986  97.9121
    24.0  98.2763  97.7652
    25.0  98.1505  97.6134
    26.0  98.0212  97.4564
    27.0  97.8880  97.2940
    28.0  97.7509  97.1258
    29.0  97.6096  96.9516
    30.0  97.4639  96.7711
    31.0  97.3136  96.5840
    32.0  97.1584  96.3898
    33.0  96.9981  96.1883
    34.0  96.8325  95.9790
    35.0  96.6611  95.7616
    36.0  96.4838  95.5356
    37.0  96.3003  95.3006
    38.0  96.1101  95.0561
    39.0  95.9129  94.8015
    40.0  95.7084  94.5364
    41.0  95.4962  94.2601
    42.0  95.2758  93.9720
    43.0  95.0467  93.6715
    44.0  94.8086  93.3579
    45.0  94.5608  93.0304
    46.0  94.3027  92.6882
    47.0  94.0339  92.3305
    48.0  93.7537  91.9563
    49.0  93.4613  91.5646
    50.0  93.1560  91.1544
    51.0  92.8370  90.7245
    52.0  92.5035  90.2736
    53.0  92.1544  89.8004
    54.0  91.7889  89.3034
    55.0  91.4057  88.7811
    56.0  91.0037  88.2316
    57.0  90.5815  87.9958
    58.0  90.1377  87.9546
    59.0  89.6708  87.9134
    60.0  89.1789  87.8722
    61.0  88.6603  87.8310
    62.0  88.1126  87.7898
    63.0  87.5338  87.7486
    64.0  86.9210  87.7074
    65.0  86.2716  87.6661
    66.0  85.5821  87.6249
    67.0  84.8491  87.5837
    68.0  84.0685  87.5425
    69.0  83.2356  87.5013
    70.0  82.3453  87.4601
    71.0  82.3025  87.4189
    72.0  82.2682  87.3777
    73.0  82.2339  87.3364
    74.0  82.1996  87.2952
    75.0  82.1653  87.2540
    76.0  82.1310  87.2128
    77.0  82.0967  87.1716
    78.0  82.0624  87.1304
    79.0  82.0281  87.0892
    80.0  81.9938  87.0480
    81.0  81.9595  87.0068
    82.0  81.9252  86.9655
    83.0  81.8909  86.9243
    84.0  81.8566  86.8831
    85.0  81.8223  86.8419
    86.0  81.7880  86.8007
    87.0  81.7537  86.7595
    88.0  81.7194  86.7183
    89.0  81.6851  86.6771
    90.0  81.6508  86.6359
    91.0  81.6165  86.5946
    92.0  81.5823  86.5534
    93.0  81.5480  86.5122
    94.0  81.5137  86.4710
    95.0  81.4794  86.4298
    96.0  81.4451  86.3886
    97.0  81.4108  86.3474
    98.0  81.3765  86.3062
    99.0  81.3422  86.2650
   100.0  81.3079  86.2237
