Temp.(C)   eta (H2) eta (NG)
     0.0 100.5614 100.3434
     1.0 100.4845 100.2621
     2.0 100.4066 100.1794
     3.0 100.3275 100.0951
     4.0 100.2473 100.0090
     5.0 100.1659  99.9213
     6.0 100.0831  99.8316
     7.0  99.9990  99.7400
     8.0  99.9134  99.6463
     9.0  99.8263  99.5504
    10.0  99.7376  99.4522
    11.0  99.6473  99.3516
    12.0  99.5551  99.2484
    13.0  99.4610  99.1425
    14.0  99.3650  99.0338
    15.0  99.2669  98.9221
    16.0  99.1666  98.8072
    17.0  99.0641  98.6891
    18.0  98.9591  98.5675
    19.0  98.8515  98.4422
    20.0  98.7413  98.3131
    21.0  98.6283  98.1800
    22.0  98.5124  98.0426
    23.0  98.3933  97.9008
    24.0  98.2710  97.7543
    25.0  98.1452  97.6029
    26.0  98.0159  97.4463
    27.0  97.8827  97.2842
    28.0  97.7456  97.1165
    29.0  97.6043  96.9427
    30.0  97.4586  96.7627
    31.0  97.3083  96.5760
    32.0  97.1531  96.3823
    33.0  96.9928  96.1812
    34.0  96.8272  95.9724
    35.0  96.6558  95.7555
    36.0  96.4785  95.5301
    37.0  96.2950  95.2956
    38.0  96.1048  95.0516
    39.0  95.9076  94.7976
    40.0  95.7031  94.5331
    41.0  95.4909  94.2575
    42.0  95.2705  93.9701
    43.0  95.0414  93.6702
    44.0  94.8033  93.3573
    45.0  94.5555  93.0306
    46.0  94.2974  92.6892
    47.0  94.0286  92.3322
    48.0  93.7484  91.9588
    49.0  93.4560  91.5680
    50.0  93.1507  91.1587
    51.0  92.8317  90.7297
    52.0  92.4982  90.2798
    53.0  92.1491  89.8077
    54.0  91.7836  89.3118
    55.0  91.4004  88.7906
    56.0  90.9984  88.2423
    57.0  90.5762  88.0322
    58.0  90.1324  87.9911
    59.0  89.6655  87.9500
    60.0  89.1736  87.9088
    61.0  88.6549  87.8677
    62.0  88.1073  87.8266
    63.0  87.5285  87.7855
    64.0  86.9157  87.7444
    65.0  86.2663  87.7033
    66.0  85.5768  87.6622
    67.0  84.8438  87.6211
    68.0  84.0632  87.5800
    69.0  83.2303  87.5389
    70.0  82.3400  87.4978
    71.0  82.2972  87.4566
    72.0  82.2629  87.4155
    73.0  82.2286  87.3744
    74.0  82.1943  87.3333
    75.0  82.1600  87.2922
    76.0  82.1257  87.2511
    77.0  82.0914  87.2100
    78.0  82.0571  87.1689
    79.0  82.0228  87.1278
    80.0  81.9885  87.0867
    81.0  81.9542  87.0456
    82.0  81.9199  87.0044
    83.0  81.8856  86.9633
    84.0  81.8513  86.9222
    85.0  81.8170  86.8811
    86.0  81.7827  86.8400
    87.0  81.7484  86.7989
    88.0  81.7141  86.7578
    89.0  81.6798  86.7167
    90.0  81.6455  86.6756
    91.0  81.6112  86.6345
    92.0  81.5770  86.5934
    93.0  81.5427  86.5522
    94.0  81.5084  86.5111
    95.0  81.4741  86.4700
    96.0  81.4398  86.4289
    97.0  81.4055  86.3878
    98.0  81.3712  86.3467
    99.0  81.3369  86.3056
   100.0  81.3026  86.2645
